Time(s),Distance(m)
0.000,0.119934
0.012,0.119934
0.024,0.119934
0.036,0.119934
0.048,0.119935
0.060,0.119935
0.072,0.119937
0.084,0.119938
0.096,0.119941
0.109,0.119943
0.121,0.119946
0.133,0.119949
0.145,0.119953
0.157,0.119956
0.169,0.119959
0.181,0.119962
0.193,0.119965
0.205,0.119968
0.217,0.119971
0.229,0.119973
0.241,0.119976
0.253,0.119978
0.265,0.119979
0.277,0.119981
0.289,0.119982
0.302,0.119983
0.314,0.119984
0.326,0.119985
0.338,0.119986
0.350,0.119987
0.362,0.119987
0.374,0.119987
0.386,0.119987
0.398,0.119987
0.410,0.119987
0.422,0.119986
0.434,0.119986
0.446,0.119985
0.458,0.119984
0.470,0.119983
0.482,0.119982
0.494,0.119981
0.507,0.119979
0.519,0.119978
0.531,0.119976
0.543,0.119974
0.555,0.119972
0.567,0.119969
0.579,0.119967
0.591,0.119964
0.603,0.119961
0.615,0.119959
0.627,0.119955
0.639,0.119952
0.651,0.119949
0.663,0.119945
0.675,0.119942
0.687,0.119938
0.699,0.119934
0.712,0.119930
0.724,0.119925
0.736,0.119921
0.748,0.119916
0.760,0.119911
0.772,0.119906
0.784,0.119901
0.796,0.119896
0.808,0.119891
0.820,0.119885
0.832,0.119879
0.844,0.119873
0.856,0.119867
0.868,0.119861
0.880,0.119855
0.892,0.119848
0.905,0.119842
0.917,0.119835
0.929,0.119828
0.941,0.119821
0.953,0.119813
0.965,0.119806
0.977,0.119798
0.989,0.119790
1.001,0.119782
1.013,0.119774
1.025,0.119766
1.037,0.119758
1.049,0.119749
1.061,0.119740
1.073,0.119732
1.085,0.119723
1.097,0.119713
1.110,0.119704
1.122,0.119695
1.134,0.119685
1.146,0.119675
1.158,0.119665
1.170,0.119655
1.182,0.119645
1.194,0.119634
1.206,0.119624
1.218,0.119613
1.230,0.119602
1.242,0.119591
1.254,0.119580
1.266,0.119568
1.278,0.119557
1.290,0.119545
1.303,0.119533
1.315,0.119521
1.327,0.119509
1.339,0.119497
1.351,0.119484
1.363,0.119472
1.375,0.119459
1.387,0.119446
1.399,0.119433
1.411,0.119420
1.423,0.119406
1.435,0.119393
1.447,0.119379
1.459,0.119365
1.471,0.119351
1.483,0.119337
1.495,0.119323
1.508,0.119308
1.520,0.119294
1.532,0.119279
1.544,0.119264
1.556,0.119249
1.568,0.119234
1.580,0.119218
1.592,0.119203
1.604,0.119187
1.616,0.119171
1.628,0.119155
1.640,0.119139
1.652,0.119123
1.664,0.119106
1.676,0.119089
1.688,0.119073
1.700,0.119056
1.713,0.119039
1.725,0.119021
1.737,0.119004
1.749,0.118986
1.761,0.118969
1.773,0.118951
1.785,0.118933
1.797,0.118914
1.809,0.118896
1.821,0.118878
1.833,0.118859
1.845,0.118840
1.857,0.118821
1.869,0.118802
1.881,0.118783
1.893,0.118763
1.906,0.118744
1.918,0.118724
1.930,0.118704
1.942,0.118684
1.954,0.118664
1.966,0.118643
1.978,0.118623
1.990,0.118602
2.002,0.118581
2.014,0.118560
2.026,0.118539
2.038,0.118518
2.050,0.118496
2.062,0.118475
2.074,0.118453
2.086,0.118431
2.098,0.118409
2.111,0.118387
2.123,0.118364
2.135,0.118342
2.147,0.118319
2.159,0.118296
2.171,0.118273
2.183,0.118250
2.195,0.118227
2.207,0.118203
2.219,0.118180
2.231,0.118156
2.243,0.118132
2.255,0.118108
2.267,0.118084
2.279,0.118060
2.291,0.118035
2.304,0.118010
2.316,0.117985
2.328,0.117960
2.340,0.117935
2.352,0.117910
2.364,0.117884
2.376,0.117859
2.388,0.117833
2.400,0.117807
2.412,0.117781
2.424,0.117755
2.436,0.117729
2.448,0.117702
2.460,0.117675
2.472,0.117648
2.484,0.117621
2.496,0.117594
2.509,0.117567
2.521,0.117540
2.533,0.117512
2.545,0.117484
2.557,0.117456
2.569,0.117428
2.581,0.117400
2.593,0.117372
2.605,0.117343
2.617,0.117315
2.629,0.117286
2.641,0.117257
2.653,0.117228
2.665,0.117198
2.677,0.117169
2.689,0.117139
2.701,0.117110
2.714,0.117080
2.726,0.117050
2.738,0.117019
2.750,0.116989
2.762,0.116959
2.774,0.116928
2.786,0.116897
2.798,0.116866
2.810,0.116835
2.822,0.116804
2.834,0.116773
2.846,0.116741
2.858,0.116709
2.870,0.116677
2.882,0.116645
2.894,0.116613
2.907,0.116581
2.919,0.116548
2.931,0.116516
2.943,0.116483
2.955,0.116450
2.967,0.116417
2.979,0.116384
2.991,0.116351
3.003,0.116317
3.015,0.116283
3.027,0.116250
3.039,0.116216
3.051,0.116181
3.063,0.116147
3.075,0.116113
3.087,0.116078
3.099,0.116043
3.112,0.116009
3.124,0.115973
3.136,0.115938
3.148,0.115903
3.160,0.115868
3.172,0.115832
3.184,0.115796
3.196,0.115760
3.208,0.115724
3.220,0.115688
3.232,0.115652
3.244,0.115615
3.256,0.115578
3.268,0.115542
3.280,0.115505
3.292,0.115468
3.305,0.115430
3.317,0.115393
3.329,0.115355
3.341,0.115318
3.353,0.115280
3.365,0.115242
3.377,0.115204
3.389,0.115165
3.401,0.115127
3.413,0.115088
3.425,0.115049
3.437,0.115010
3.449,0.114971
3.461,0.114932
3.473,0.114893
3.485,0.114853
3.497,0.114814
3.510,0.114774
3.522,0.114734
3.534,0.114694
3.546,0.114654
3.558,0.114613
3.570,0.114573
3.582,0.114532
3.594,0.114491
3.606,0.114450
3.618,0.114409
3.630,0.114368
3.642,0.114327
3.654,0.114285
3.666,0.114243
3.678,0.114201
3.690,0.114159
3.702,0.114117
3.715,0.114075
3.727,0.114032
3.739,0.113990
3.751,0.113947
3.763,0.113904
3.775,0.113861
3.787,0.113818
3.799,0.113775
3.811,0.113731
3.823,0.113688
3.835,0.113644
3.847,0.113600
3.859,0.113556
3.871,0.113512
3.883,0.113467
3.895,0.113423
3.908,0.113378
3.920,0.113333
3.932,0.113289
3.944,0.113243
3.956,0.113198
3.968,0.113153
3.980,0.113107
3.992,0.113062
4.004,0.113016
4.016,0.112970
4.028,0.112924
4.040,0.112878
4.052,0.112831
4.064,0.112785
4.076,0.112738
4.088,0.112691
4.100,0.112644
4.113,0.112597
4.125,0.112550
4.137,0.112503
4.149,0.112455
4.161,0.112407
4.173,0.112359
4.185,0.112312
4.197,0.112263
4.209,0.112215
4.221,0.112167
4.233,0.112118
4.245,0.112070
4.257,0.112021
4.269,0.111972
4.281,0.111923
4.293,0.111873
4.306,0.111824
4.318,0.111775
4.330,0.111725
4.342,0.111675
4.354,0.111625
4.366,0.111575
4.378,0.111525
4.390,0.111474
4.402,0.111424
4.414,0.111373
4.426,0.111322
4.438,0.111271
4.450,0.111220
4.462,0.111169
4.474,0.111117
4.486,0.111066
4.498,0.111014
4.511,0.110962
4.523,0.110910
4.535,0.110858
4.547,0.110806
4.559,0.110754
4.571,0.110701
4.583,0.110649
4.595,0.110596
4.607,0.110543
4.619,0.110490
4.631,0.110437
4.643,0.110383
4.655,0.110330
4.667,0.110276
4.679,0.110222
4.691,0.110168
4.703,0.110114
4.716,0.110060
4.728,0.110006
4.740,0.109951
4.752,0.109897
4.764,0.109842
4.776,0.109787
4.788,0.109732
4.800,0.109677
4.812,0.109621
4.824,0.109566
4.836,0.109510
4.848,0.109454
4.860,0.109399
4.872,0.109342
4.884,0.109286
4.896,0.109230
4.909,0.109174
4.921,0.109117
4.933,0.109060
4.945,0.109004
4.957,0.108947
4.969,0.108889
4.981,0.108832
4.993,0.108775
5.005,0.108717
5.017,0.108660
5.029,0.108602
5.041,0.108544
5.053,0.108486
5.065,0.108427
5.077,0.108369
5.089,0.108311
5.101,0.108252
5.114,0.108193
5.126,0.108134
5.138,0.108075
5.150,0.108016
5.162,0.107957
5.174,0.107897
5.186,0.107837
5.198,0.107778
5.210,0.107718
5.222,0.107658
5.234,0.107598
5.246,0.107537
5.258,0.107477
5.270,0.107417
5.282,0.107356
5.294,0.107295
5.307,0.107234
5.319,0.107173
5.331,0.107112
5.343,0.107050
5.355,0.106989
5.367,0.106927
5.379,0.106866
5.391,0.106804
5.403,0.106742
5.415,0.106679
5.427,0.106617
5.439,0.106555
5.451,0.106492
5.463,0.106429
5.475,0.106366
5.487,0.106303
5.499,0.106240
5.512,0.106177
5.524,0.106114
5.536,0.106050
5.548,0.105987
5.560,0.105923
5.572,0.105859
5.584,0.105795
5.596,0.105731
5.608,0.105666
5.620,0.105602
5.632,0.105537
5.644,0.105473
5.656,0.105408
5.668,0.105343
5.680,0.105278
5.692,0.105213
5.704,0.105147
5.717,0.105082
5.729,0.105016
5.741,0.104950
5.753,0.104884
5.765,0.104818
5.777,0.104752
5.789,0.104686
5.801,0.104619
5.813,0.104553
5.825,0.104486
5.837,0.104419
5.849,0.104352
5.861,0.104285
5.873,0.104218
5.885,0.104151
5.897,0.104083
5.910,0.104016
5.922,0.103948
5.934,0.103880
5.946,0.103812
5.958,0.103744
5.970,0.103676
5.982,0.103607
5.994,0.103539
6.006,0.103470
6.018,0.103401
6.030,0.103333
6.042,0.103264
6.054,0.103194
6.066,0.103125
6.078,0.103056
6.090,0.102986
6.102,0.102917
6.115,0.102847
6.127,0.102777
6.139,0.102707
6.151,0.102637
6.163,0.102566
6.175,0.102496
6.187,0.102425
6.199,0.102354
6.211,0.102284
6.223,0.102213
6.235,0.102142
6.247,0.102070
6.259,0.101999
6.271,0.101928
6.283,0.101856
6.295,0.101784
6.308,0.101712
6.320,0.101640
6.332,0.101568
6.344,0.101496
6.356,0.101424
6.368,0.101351
6.380,0.101279
6.392,0.101206
6.404,0.101133
6.416,0.101060
6.428,0.100987
6.440,0.100914
6.452,0.100841
6.464,0.100767
6.476,0.100694
6.488,0.100620
6.500,0.100546
6.513,0.100472
6.525,0.100398
6.537,0.100324
6.549,0.100249
6.561,0.100175
6.573,0.100100
6.585,0.100025
6.597,0.099951
6.609,0.099876
6.621,0.099800
6.633,0.099725
6.645,0.099650
6.657,0.099575
6.669,0.099499
6.681,0.099423
6.693,0.099347
6.706,0.099271
6.718,0.099195
6.730,0.099119
6.742,0.099043
6.754,0.098967
6.766,0.098890
6.778,0.098813
6.790,0.098736
6.802,0.098660
6.814,0.098582
6.826,0.098505
6.838,0.098428
6.850,0.098350
6.862,0.098273
6.874,0.098195
6.886,0.098117
6.898,0.098039
6.911,0.097961
6.923,0.097883
6.935,0.097805
6.947,0.097727
6.959,0.097648
6.971,0.097569
6.983,0.097491
6.995,0.097412
7.007,0.097333
7.019,0.097254
7.031,0.097175
7.043,0.097095
7.055,0.097016
7.067,0.096936
7.079,0.096857
7.091,0.096777
7.103,0.096697
7.116,0.096617
7.128,0.096537
7.140,0.096456
7.152,0.096376
7.164,0.096295
7.176,0.096215
7.188,0.096134
7.200,0.096053
7.212,0.095972
7.224,0.095891
7.236,0.095809
7.248,0.095728
7.260,0.095647
7.272,0.095565
7.284,0.095483
7.296,0.095401
7.309,0.095319
7.321,0.095237
7.333,0.095155
7.345,0.095073
7.357,0.094991
7.369,0.094908
7.381,0.094825
7.393,0.094743
7.405,0.094660
7.417,0.094577
7.429,0.094494
7.441,0.094410
7.453,0.094327
7.465,0.094244
7.477,0.094160
7.489,0.094076
7.501,0.093993
7.514,0.093909
7.526,0.093825
7.538,0.093740
7.550,0.093656
7.562,0.093572
7.574,0.093487
7.586,0.093403
7.598,0.093318
7.610,0.093233
7.622,0.093148
7.634,0.093063
7.646,0.092978
7.658,0.092892
7.670,0.092807
7.682,0.092722
7.694,0.092636
7.707,0.092550
7.719,0.092464
7.731,0.092378
7.743,0.092292
7.755,0.092206
7.767,0.092120
7.779,0.092034
7.791,0.091947
7.803,0.091860
7.815,0.091774
7.827,0.091687
7.839,0.091600
7.851,0.091513
7.863,0.091425
7.875,0.091338
7.887,0.091251
7.899,0.091163
7.912,0.091075
7.924,0.090988
7.936,0.090900
7.948,0.090812
7.960,0.090724
7.972,0.090635
7.984,0.090547
7.996,0.090459
8.008,0.090370
8.020,0.090282
8.032,0.090193
8.044,0.090104
8.056,0.090015
8.068,0.089926
8.080,0.089837
8.092,0.089748
8.104,0.089658
8.117,0.089569
8.129,0.089479
8.141,0.089389
8.153,0.089300
8.165,0.089210
8.177,0.089120
8.189,0.089029
8.201,0.088939
8.213,0.088849
8.225,0.088758
8.237,0.088668
8.249,0.088577
8.261,0.088486
8.273,0.088395
8.285,0.088304
8.297,0.088213
8.310,0.088122
8.322,0.088030
8.334,0.087939
8.346,0.087847
8.358,0.087756
8.370,0.087664
8.382,0.087572
8.394,0.087480
8.406,0.087388
8.418,0.087296
8.430,0.087204
8.442,0.087111
8.454,0.087019
8.466,0.086926
8.478,0.086834
8.490,0.086741
8.502,0.086648
8.515,0.086555
8.527,0.086462
8.539,0.086369
8.551,0.086275
8.563,0.086182
8.575,0.086088
8.587,0.085994
8.599,0.085901
8.611,0.085807
8.623,0.085713
8.635,0.085619
8.647,0.085525
8.659,0.085430
8.671,0.085336
8.683,0.085241
8.695,0.085147
8.708,0.085052
8.720,0.084957
8.732,0.084863
8.744,0.084768
8.756,0.084673
8.768,0.084577
8.780,0.084482
8.792,0.084387
8.804,0.084291
8.816,0.084196
8.828,0.084100
8.840,0.084004
8.852,0.083908
8.864,0.083812
8.876,0.083716
8.888,0.083620
8.900,0.083524
8.913,0.083427
8.925,0.083331
8.937,0.083234
8.949,0.083138
8.961,0.083041
8.973,0.082946
8.985,0.082857
8.997,0.082777
9.009,0.082708
9.021,0.082652
9.033,0.082609
9.045,0.082577
9.057,0.082557
9.069,0.082546
9.081,0.082542
9.093,0.082540
9.105,0.082540
9.118,0.082540
9.130,0.082540
9.142,0.082540
9.154,0.082541
9.166,0.082541
9.178,0.082541
9.190,0.082541
9.202,0.082542
9.214,0.082542
9.226,0.082542
9.238,0.082543
9.250,0.082543
9.262,0.082543
9.274,0.082544
9.286,0.082544
9.298,0.082544
9.311,0.082544
9.323,0.082545
9.335,0.082545
9.347,0.082545
9.359,0.082546
9.371,0.082546
9.383,0.082546
9.395,0.082546
9.407,0.082547
9.419,0.082547
9.431,0.082547
9.443,0.082547
9.455,0.082548
9.467,0.082548
9.479,0.082548
9.491,0.082549
9.503,0.082549
9.516,0.082549
9.528,0.082549
9.540,0.082550
9.552,0.082550
9.564,0.082550
9.576,0.082550
9.588,0.082551
9.600,0.082551
9.612,0.082551
9.624,0.082551
9.636,0.082552
9.648,0.082552
9.660,0.082552
9.672,0.082552
9.684,0.082552
9.696,0.082553
9.709,0.082553
9.721,0.082553
9.733,0.082553
9.745,0.082554
9.757,0.082554
9.769,0.082554
9.781,0.082554
9.793,0.082555
9.805,0.082555
9.817,0.082555
9.829,0.082555
9.841,0.082555
9.853,0.082556
9.865,0.082556
9.877,0.082556
9.889,0.082556
9.901,0.082556
9.914,0.082557
9.926,0.082557
9.938,0.082557
9.950,0.082557
9.962,0.082557
9.974,0.082558
9.986,0.082558
9.998,0.082558
10.010,0.082558
10.022,0.082558
10.034,0.082559
10.046,0.082559
10.058,0.082559
10.070,0.082559
10.082,0.082559
10.094,0.082560
10.106,0.082560
10.119,0.082560
10.131,0.082560
10.143,0.082560
10.155,0.082561
10.167,0.082561
10.179,0.082561
10.191,0.082561
10.203,0.082561
10.215,0.082561
10.227,0.082562
10.239,0.082562
10.251,0.082562
10.263,0.082562
10.275,0.082562
10.287,0.082562
10.299,0.082563
10.312,0.082563
10.324,0.082563
10.336,0.082563
10.348,0.082563
10.360,0.082563
10.372,0.082564
10.384,0.082564
10.396,0.082564
10.408,0.082564
10.420,0.082564
10.432,0.082564
10.444,0.082565
10.456,0.082565
10.468,0.082565
10.480,0.082565
10.492,0.082565
10.504,0.082565
10.517,0.082566
10.529,0.082566
10.541,0.082566
10.553,0.082566
10.565,0.082566
10.577,0.082566
10.589,0.082566
10.601,0.082567
10.613,0.082567
10.625,0.082567
10.637,0.082567
10.649,0.082567
10.661,0.082567
10.673,0.082567
10.685,0.082568
10.697,0.082568
10.710,0.082568
10.722,0.082568
10.734,0.082568
10.746,0.082568
10.758,0.082568
10.770,0.082568
10.782,0.082569
10.794,0.082569
10.806,0.082569
10.818,0.082569
10.830,0.082569
10.842,0.082569
10.854,0.082569
10.866,0.082570
10.878,0.082570
10.890,0.082570
10.902,0.082570
10.915,0.082570
10.927,0.082570
10.939,0.082570
10.951,0.082570
10.963,0.082570
10.975,0.082571
10.987,0.082571
10.999,0.082571
11.011,0.082571
11.023,0.082571
11.035,0.082571
11.047,0.082571
11.059,0.082571
11.071,0.082572
11.083,0.082572
11.095,0.082572
11.107,0.082572
11.120,0.082572
11.132,0.082572
11.144,0.082572
11.156,0.082572
11.168,0.082572
11.180,0.082573
11.192,0.082573
11.204,0.082573
11.216,0.082573
11.228,0.082573
11.240,0.082573
11.252,0.082573
11.264,0.082573
11.276,0.082573
11.288,0.082573
11.300,0.082574
11.313,0.082574
11.325,0.082574
11.337,0.082574
11.349,0.082574
11.361,0.082574
11.373,0.082574
11.385,0.082574
11.397,0.082574
11.409,0.082574
11.421,0.082574
11.433,0.082575
11.445,0.082575
11.457,0.082575
11.469,0.082575
11.481,0.082575
11.493,0.082575
11.505,0.082575
11.518,0.082575
11.530,0.082575
11.542,0.082575
11.554,0.082575
11.566,0.082576
11.578,0.082576
11.590,0.082576
11.602,0.082576
11.614,0.082576
11.626,0.082576
11.638,0.082576
11.650,0.082576
11.662,0.082576
11.674,0.082576
11.686,0.082576
11.698,0.082576
11.711,0.082577
11.723,0.082577
11.735,0.082577
11.747,0.082577
11.759,0.082577
11.771,0.082577
11.783,0.082577
11.795,0.082577
11.807,0.082577
11.819,0.082577
11.831,0.082577
11.843,0.082577
11.855,0.082577
11.867,0.082578
11.879,0.082578
11.891,0.082578
11.903,0.082578
11.916,0.082578
11.928,0.082578
11.940,0.082578
11.952,0.082578
11.964,0.082578
11.976,0.082578
11.988,0.082578
12.000,0.082578
12.012,0.082578
12.024,0.082578
12.036,0.082579
12.048,0.082579
